dt (fs),msd (A^2),msd_component_0,msd_component_1,msd_component_2
20.0,0.18921256289896249,0.06574806768202679,0.064764898323508735,0.058699596893425243
40.0,0.55894562567298323,0.20962378506953572,0.20742823710478109,0.14189360349866437
60.0,0.91629353447281936,0.36122539348745164,0.36295750343891209,0.19211063754645513
80.0,1.2462848619825646,0.49311717291483825,0.50649864612700668,0.24666904294072206
100.0,1.5418084739290814,0.60240994868990017,0.63088839974144006,0.30851012549774182
120.0,1.7937380045985396,0.69374994872092133,0.73686303107117967,0.36312502480644304
140.0,2.0077421461658211,0.76889636525940341,0.82608129178699197,0.41276448911942754
160.0,2.1894716568834491,0.82959420663582284,0.89902707907389212,0.46085037117373995
180.0,2.3487498757160976,0.88120377882667622,0.95970498918331471,0.50784110770610202
200.0,2.4954103802360441,0.9280650352658113,1.0132456346065215,0.55409971036370886
220.0,2.6372439473151719,0.97287438700052142,1.0637526677178029,0.60061689259684825
240.0,2.7800648674703083,1.0181196280921911,1.1152840570778488,0.64666118230026459
260.0,2.9255541618787397,1.0642187065330253,1.170136234812907,0.69119922053280103
280.0,3.0732333311465405,1.1098023178726204,1.2266104618416718,0.73682055143225123
300.0,3.2179009176532931,1.1542465062272917,1.2813688402348165,0.78228557119119091
320.0,3.3550369090885237,1.1974412931163374,1.3330864662989712,0.82450914967321653
340.0,3.4884165390656214,1.2384723689665691,1.3832809360226883,0.86666323407636092
360.0,3.6210357318661472,1.276643687497502,1.4334558604226606,0.91093618394598785
380.0,3.7510448157500891,1.3122240249443653,1.4836693144787723,0.9551514763269503
400.0,3.8768755503804799,1.3459173671298474,1.5332339336677812,0.99772424958285244
420.0,3.9988981242422064,1.3786984421220905,1.5815290068334522,1.0386706752866646
440.0,4.1194197975161035,1.411440006759165,1.6295044088108011,1.078475381946141
460.0,4.2404645098409164,1.4449640801745547,1.6773247433541951,1.118175686312163
480.0,4.3601674188326198,1.4791764482229901,1.7236910669959915,1.1572999036136342
500.0,4.4781560954299993,1.5131608800811875,1.768402120327099,1.1965930950217134
520.0,4.5956923850679487,1.5464518451360343,1.8125455432130182,1.2366949967189054
540.0,4.713058239451704,1.5801750047670202,1.8570005134008065,1.2758827212838828
560.0,4.83104795606818,1.6151567429644103,1.9014898864827248,1.314401326621047
580.0,4.9487432179517983,1.6514739396259506,1.9454832027083544,1.3517860756174944
600.0,5.0641853535329648,1.6888443714579364,1.9887648297605773,1.38657615231445
620.0,5.1780120664980664,1.726629402002279,2.0310050481024327,1.4203776163933568
640.0,5.2897129859814083,1.7635865927298653,2.0717745221899384,1.4543518710616068
660.0,5.3996883918416243,1.7993004536868415,2.1123478558622493,1.4880400822925386
680.0,5.5094633908459736,1.8343261350985012,2.1536761917069329,1.5214610640405337
700.0,5.6216201666041323,1.8702883405818902,2.195777717735178,1.5555541082870585
720.0,5.7359926264413268,1.9079312998651476,2.237785376111018,1.5902759504651602
740.0,5.8503670713852038,1.946545376065411,2.2792050920226594,1.6246166032971308
760.0,5.9640603824764229,1.9847164003597078,2.3201460327815782,1.6591979493351401
780.0,6.0765735382778958,2.0218313596117046,2.3605662561521874,1.6941759225140021
800.0,6.186973251650242,2.0578826465757265,2.4003505283792741,1.7287400766952425
820.0,6.2970248432045617,2.092927408563912,2.4402393149942943,1.7638581196463516
840.0,6.405666160068094,2.1266505317693873,2.4801888591783974,1.7988267691203097
860.0,6.5122259510558758,2.1587510465676516,2.5202613904733107,1.8332135140149179
880.0,6.6174976708682491,2.1900032007493264,2.5604512019107011,1.8670432682082243
900.0,6.7214624102090204,2.2215955861517473,2.6000749544621802,1.8997918695950928
920.0,6.8248706256175424,2.2542357417480527,2.6394006138352863,1.9312342700341969
940.0,6.9285757854257213,2.2876057943560673,2.6782288017110445,1.962741189358604
960.0,7.0311852278960094,2.3208802164854747,2.7148213472798162,1.9954836641307137
980.0,7.1301554813564358,2.3527436789978529,2.7483525226808747,2.0290592796777105
1000.0,7.2255969830604538,2.3821750211431816,2.7796807666577501,2.0637411952595297
1020.0,7.3155388119036839,2.4079685308728491,2.8097954431285448,2.0977748379022851
1040.0,7.4004458757426939,2.430009341799086,2.8392063782648904,2.1312301556787148
1060.0,7.4843598858863531,2.4496461356679076,2.8688876303787532,2.1658261198396875
1080.0,7.5677268120901751,2.4680389020235936,2.8996128505123226,2.2000750595542593
1100.0,7.6506433346779676,2.4862613328666536,2.931503556827503,2.2328784449838111
1120.0,7.7336592782681706,2.5042963177454727,2.9640208956556857,2.2653420648670095
1140.0,7.8162396373057934,2.5212300017919933,2.9967031952584802,2.2983064402553146
1160.0,7.8998087271957118,2.5377760694197642,3.0311690326904639,2.3308636250854864
1180.0,7.9876764685339507,2.5553801051182812,3.0688896178577854,2.3634067455578833
1200.0,8.0792742984498176,2.5739669773775793,3.10921046572772,2.3960968553445241
1220.0,8.17046996648914,2.5928801274124105,3.1502731113485352,2.4273167277281908
1240.0,8.2599093321131605,2.6117369552176006,3.1906921280498732,2.4574802488456879
1260.0,8.3502160582396723,2.6300874234356266,3.2301383314559957,2.4899903033480553
1280.0,8.441572279239125,2.6476477199683401,3.2691613730378339,2.5247631862329469
1300.0,8.5309256912246134,2.6647966101223552,3.3078991388141401,2.5582299422881185
1320.0,8.6175453262859918,2.6820546470206565,3.3452941179613012,2.5901965613040279
1340.0,8.7021419161301417,2.6999067595899313,3.3806935644102936,2.6215415921299163
1360.0,8.787209876926628,2.7195855425449822,3.4149545288588974,2.652669805522752
1380.0,8.8755833093913843,2.7420162551813165,3.4491305990986358,2.6844364551114306
1400.0,8.966912365934208,2.7668271389568222,3.4840468636358963,2.7160383633414851
1420.0,9.0600526843260116,2.7925056887921951,3.5196208446094071,2.7479261509244077
1440.0,9.1513175805881737,2.8167984975731821,3.5553862064493247,2.7791328765656722
1460.0,9.2373958897681518,2.8387116794157343,3.5903681393378015,2.808316071014616
1480.0,9.3199037628993189,2.8594945889108789,3.6232677223018452,2.8371414516865965
1500.0,9.4009102318298581,2.879767974098665,3.654775153000644,2.8663671047305415
1520.0,9.4797272695470518,2.8988536991965912,3.6868796504847925,2.8939939198656672
1540.0,9.5573789299757532,2.9162371763065211,3.7204906070919166,2.9206511465773128
1560.0,9.6324550524055592,2.9311975423723027,3.7538074544528985,2.9474500555803584
1580.0,9.7027871287657543,2.9442652551206838,3.7846740106504728,2.9738478629945932
1600.0,9.7729855525665581,2.9575092345843874,3.8141334222206504,3.001342895761522
1620.0,9.8469679843112612,2.9722593670835566,3.8443065641206866,3.0304020531070206
1640.0,9.9230237276376823,2.9892414449820386,3.8760211990224129,3.0577610836332285
1660.0,10.000386796280729,3.008349348377755,3.9082446156312112,3.0837928322717616
1680.0,10.079447943546764,3.0283659378279113,3.9389143285765122,3.1121676771423408
1700.0,10.157054055648617,3.0480912445514949,3.9659976804293442,3.1429651306677777
1720.0,10.227910489369442,3.066168921524123,3.9888823477363524,3.1728592201089594
1740.0,10.292675490860335,3.0820497223437191,4.0092753844705626,3.201350384046052
1760.0,10.357380503312408,3.0966527658469341,4.0298212419286976,3.2309064955367823
1780.0,10.425412077517523,3.1112835560084058,4.0521474213084892,3.261981100200626
1800.0,10.497659948461211,3.1262689786354398,4.0776922839260408,3.2936986858997352
1820.0,10.572371232996058,3.1407187863001589,4.1068602851313987,3.324792161564504
1840.0,10.647380868404191,3.1543978554050351,4.1391317976104975,3.3538512153886568
1860.0,10.723761787989154,3.1681233378837836,4.1734802718477404,3.3821581782576269
1880.0,10.802336783891359,3.1827759957046418,4.209210094420941,3.4103506937657766
1900.0,10.882697746188942,3.1989342464589838,4.2451160492122675,3.4386474505176903
1920.0,10.963530867206371,3.2170513956135034,4.2793828833658818,3.4670965882269824
1940.0,11.044415846257454,3.2372262221791557,4.3113449807660569,3.4958446433122465
1960.0,11.126274748497231,3.2589820130553129,4.3409736392755089,3.5263190961664153
1980.0,11.206823765988764,3.2828065918514957,4.3678305949226086,3.5561865792146583
2000.0,11.284838510220107,3.3083154180075303,4.3920023956500698,3.5845206965625049
2020.0,11.361945363937229,3.3338626712168056,4.4147641673167684,3.6133185254036606
2040.0,11.438417375124587,3.3583766488738487,4.4370306376155577,3.6430100886351804
2060.0,11.512141937976621,3.3821024572593754,4.4595339589252525,3.6705055217919931
2080.0,11.582841948736794,3.4050135603375877,4.4827147577525679,3.6951136306466448
2100.0,11.65416021458933,3.4272755909089296,4.5063694988223162,3.7205151248580917
2120.0,11.727497543082581,3.449657126191898,4.5301528049562307,3.7476876119344604
2140.0,11.799645314254276,3.4721848513766744,4.5532042476280123,3.7742562152495882
2160.0,11.867964710535933,3.4942296734662621,4.5733595535855809,3.8003754834840926
2180.0,11.933310104585097,3.5151295348174258,4.5903363884564339,3.827844181311236
2200.0,11.996460919565509,3.5343141966329266,4.6067808925571709,3.8553658303754119
2220.0,12.058741514456973,3.5523173022850583,4.6246837793801294,3.8817404327917853
2240.0,12.12244754472858,3.5710419463149865,4.6431526307070428,3.9082529677065514
2260.0,12.188574629044357,3.5914246450131717,4.6619467155747829,3.9352032684563998
2280.0,12.257199163263703,3.6128793937582677,4.6827864239981301,3.961533345507303
2300.0,12.328490174725918,3.6342210383910856,4.7070709141741958,3.9871982221606359
2320.0,12.40134453905187,3.6557396428246687,4.7333074042172525,4.0122974920099512
2340.0,12.474417492685568,3.6783404695517197,4.7593822935086205,4.0366947296252285
2360.0,12.549151866839853,3.7024415752356883,4.785154329720017,4.0615559618841504
2380.0,12.625448656387077,3.727894780518441,4.8101652272691044,4.0873886485995357
2400.0,12.700788522901542,3.7540070282225608,4.8333828158955123,4.1133986787834722
2420.0,12.7725579318227,3.7803744196656908,4.8542852070892195,4.1378983050677878
2440.0,12.841912635692404,3.8076699033771551,4.8735079514784729,4.1607347808367727
2460.0,12.914185259870239,3.8375548395475367,4.8927160068190982,4.1839144135036008
2480.0,12.99215519548067,3.8703510596258281,4.9137154437702719,4.2080886920845666
2500.0,13.073394320063429,3.9034812177278688,4.9377600441645839,4.2321530581709705
2520.0,13.156524366789718,3.9347895861305835,4.9659121491385996,4.2558226315205339
2540.0,13.243566866280592,3.965138215732869,4.9982241925393165,4.2802044580084049
2560.0,13.334321391833001,3.9961759757567759,5.0328604402358437,4.3052849758403822
2580.0,13.425853162084756,4.0283356123060177,5.0679354282833362,4.3295821214954024
2600.0,13.516135423693994,4.0608981696485067,5.101839723461369,4.3533975305841164
2620.0,13.606170102043654,4.0932882741617478,5.1330920231547719,4.3797898047271318
2640.0,13.695833110630785,4.1245093828064423,5.1610794511700684,4.4102442766542742
2660.0,13.780364346538994,4.1538281495304856,5.1864196457491119,4.4401165512593996
2680.0,13.858708953951041,4.1813212731334533,5.2100833581548613,4.4673043226627236
2700.0,13.934863985294362,4.2081438694575688,5.2325326629024485,4.4941874529343462
2720.0,14.011379336444032,4.2355101751603401,5.2554486410047527,4.520420520278936
2740.0,14.088639930792253,4.2624771265487897,5.2802299633608332,4.5459328408826298
2760.0,14.165873086465252,4.288242742268606,5.3065099445204131,4.571120399676234
2780.0,14.243165475601785,4.3136671696371049,5.3340303342709223,4.5954679716937594
2800.0,14.321787830965674,4.3391835501850693,5.3627763460251714,4.6198279347554285
2820.0,14.403672426026265,4.365937581015169,5.3925478472078447,4.6451869978032558
2840.0,14.489025357166273,4.394903218226168,5.4237222350561396,4.6703999038839621
2860.0,14.577417485043036,4.4253015831675153,5.4559992510561912,4.6961166508193282
2880.0,14.666942450837311,4.4558652657058211,5.4877224776397853,4.7233547074917031
2900.0,14.753157280564075,4.4865793567858532,5.5173098486880416,4.7492680750901775
2920.0,14.836367743201228,4.518851096520601,5.5449032034532344,4.7726134432273906
2940.0,14.919134666293585,4.5525225133016596,5.5715518880687576,4.7950602649231673
2960.0,15.002223547547935,4.5870615243160042,5.5984181103001838,4.8167439129317486
2980.0,15.087696485609088,4.6229926999791502,5.6266072374933032,4.8380965481366367
3000.0,15.178179783736562,4.6607836079491989,5.6563211990545206,4.8610749767328416
3020.0,15.272006913785976,4.7005492048561885,5.6870529001409356,4.8844048087888554
3040.0,15.365924099391137,4.740873242652289,5.7182924705569871,4.9067583861818571
3060.0,15.457489147212495,4.7796164775569459,5.7492499183585215,4.9286227512970244
3080.0,15.544149762910472,4.8154816974532606,5.7786410738331391,4.9500269916240773
3100.0,15.623143469894984,4.8472760958338084,5.805797023589145,4.9700703504720343
3120.0,15.693897703309034,4.8749641351831663,5.8303836226275338,4.988549945498332
3140.0,15.760090454311348,4.9007509432938408,5.8523521155409455,5.0069873954765631
3160.0,15.826040564425131,4.9264642258113573,5.8734558942162014,5.0261204443975736
3180.0,15.893356013246812,4.9530868702061914,5.8955647568398604,5.0447043862007623
3200.0,15.964081410225118,4.9811638529173825,5.9186374959881753,5.064280061319562
3220.0,16.039032435884586,5.0117356223417797,5.9421555300608659,5.0851412834819385
3240.0,16.114054143967937,5.0452349876753457,5.9640044660368172,5.1048146902557789
3260.0,16.187324216240071,5.0811379670711041,5.9835133543780614,5.1226728947909024
3280.0,16.262189746112369,5.1180517892916066,6.0020612863561489,5.1420766704646192
3300.0,16.339620290240063,5.1554626315833385,6.0210438325772948,5.1631138260794325
3320.0,16.414282594946123,5.1917796541554146,6.0401997003604313,5.1823032404302776
3340.0,16.484533450840672,5.2255287703063615,6.0578004365830829,5.2012042439512367
3360.0,16.550336426879468,5.2567573863147059,6.0735948113458456,5.2199842292189205
3380.0,16.612724978223646,5.2866187568409266,6.0891203069268087,5.2369859144559072
3400.0,16.676528529054771,5.3163356043689323,6.1062069345153684,5.2539859901704675
3420.0,16.743614660008845,5.3467645090870786,6.1243274078359473,5.2725227430858208
3440.0,16.812113346454993,5.3779556717942558,6.1417242211109411,5.2924334535497923
3460.0,16.881302962526718,5.4101008847449839,6.1573629445192388,5.3138391332624941
3480.0,16.949130931311078,5.4422831533588507,6.1705051980875307,5.3363425798646942
3500.0,17.013680755924021,5.4731088761188991,6.180801652697669,5.359770227107461
3520.0,17.075411885004531,5.5029327126129335,6.1895252739280631,5.3829538984635334
3540.0,17.137205942092084,5.5331342496994935,6.1980037821693568,5.4060679102232356
3560.0,17.203639773152531,5.5660726686736854,6.2072317929118066,5.4303353115670348
3580.0,17.275734423102605,5.6032723642416338,6.2179005840565349,5.4545614748044322
3600.0,17.353504645849398,5.6448624383147559,6.2307465340697394,5.4778956734649045
3620.0,17.437610700769941,5.6899766146777306,6.2459621221363042,5.5016719639559106
3640.0,17.524590221278835,5.7361027943663601,6.262639239998645,5.5258481869138381
3660.0,17.609638910707929,5.7805550277037288,6.279757713439599,5.5493261695646048
3680.0,17.691414982325767,5.8224344516518558,6.2964746973234913,5.5725058333504212
3700.0,17.770514055576598,5.86178606602871,6.3130379961343781,5.5956899934135045
3720.0,17.849411310340042,5.8996451896502453,6.3311449397885902,5.6186211809012061
3740.0,17.928192937958478,5.9362596819795694,6.3507166343343382,5.6412166216445696
3760.0,18.004976794293128,5.971266071165628,6.3707574399988225,5.662953283128676
3780.0,18.079456587462026,6.0049182634313922,6.3908459117901106,5.6836924122405197
3800.0,18.153479489875053,6.0377081021841281,6.4104642298532273,5.7053071578376962
3820.0,18.226756050371641,6.0694678265369291,6.4289809147404107,5.7283073090942986
3840.0,18.296588665276676,6.1003705074155716,6.4458287069003717,5.7503894509607303
3860.0,18.366010962024323,6.132018236604285,6.4618694354069728,5.772123290013063
3880.0,18.439543744952857,6.165808576766759,6.4789293033133042,5.7948058648727905
3900.0,18.515800154129394,6.2010098992375351,6.4970091065255859,5.8177811483662705
3920.0,18.591195444489852,6.2350159084034749,6.5158041020895086,5.8403754339968721
3940.0,18.664608713339739,6.2668758179498463,6.5352113596442276,5.8625215357456657
3960.0,18.738708081076361,6.2981293676367294,6.5558553160364497,5.8847233974031763
3980.0,18.815027791543827,6.3298960575804397,6.5789046227105441,5.9062271112528464
4000.0,18.894649073253944,6.3631641555011536,6.6044208956545205,5.9270640220982713
4020.0,18.97775449388941,6.3987852431531707,6.6306934187654676,5.9482758319707774
4040.0,19.060198565713964,6.4369809623824024,6.654872731586722,5.9683448717448409
4060.0,19.138626860845179,6.478179775198428,6.6753307601493779,5.9851163254973727
4080.0,19.217529678719664,6.5227584057253063,6.6928430177128106,6.0019282552815465
4100.0,19.295743813279088,6.5690681526675583,6.7089423456523569,6.0177333149591767
4120.0,19.369833815569201,6.6136906876419159,6.7247826816637897,6.0313604462634984
4140.0,19.443039235234316,6.6545272297244926,6.7416479279032497,6.0468640776065676
4160.0,19.516015492892453,6.6920023341362018,6.7596996762444661,6.0643134825117881
4180.0,19.58677368425327,6.7279364184367738,6.7779847025708735,6.0808525632456192
4200.0,19.65683711236322,6.7631112075536608,6.7959482846935995,6.0977776201159575
4220.0,19.728589196405636,6.79742796338628,6.8143314532876538,6.1168297797317024
4240.0,19.802769335857271,6.8308926219715644,6.8341293905281635,6.1377473233575426
4260.0,19.878892658223609,6.8640132349685441,6.8558583578171941,6.1590210654378659
4280.0,19.955847783108112,6.8966929869537923,6.8788178036271752,6.1803369925271472
4300.0,20.032074087748754,6.9285679091427559,6.9022271237646642,6.2012790548413381
4320.0,20.105422376634305,6.9592054044000236,6.9249101459465567,6.2213068262877211
4340.0,20.17477028092738,6.9883724061189749,6.9446043240078676,6.24179355080053
4360.0,20.240055243900571,7.0168701059681826,6.9613167284988133,6.2618684094335748
4380.0,20.30273360841862,7.0456111155099794,6.9772979246432563,6.2798245682653819
4400.0,20.367559198903916,7.0756258889449919,6.9945545843410688,6.2973787256178522
4420.0,20.438315665669926,7.1084922558022319,7.0141340854272389,6.3156893244404504
4440.0,20.514819157276879,7.1445691368475872,7.036682701652123,6.3335673187771775
4460.0,20.594251753957955,7.1830975799130554,7.0611868858903959,6.3499672881545006
4480.0,20.676093180516375,7.2234065454777765,7.0856443195351932,6.3670423155034062
4500.0,20.756344314005847,7.263935622417935,7.1085479928258568,6.3838606987620548
4520.0,20.829557727986042,7.3029289462250881,7.128365324600602,6.398263457160362
4540.0,20.896823683280985,7.340517399281854,7.1444502970899064,6.4118559869092255
4560.0,20.960214755941131,7.3777068667603078,7.157337874424357,6.4251700147564623
4580.0,21.022181439842239,7.415700843259259,7.1679591364835318,6.4385214600994498
4600.0,21.085625730533238,7.4549695166122278,7.1779013409021246,6.4527548730188879
4620.0,21.150753393851669,7.4945554628867255,7.188449208458028,6.4677487225069186
4640.0,21.216409397925815,7.5332315062944248,7.2004435398693136,6.4827343517620779
4660.0,21.283833359969456,7.5706386088681317,7.2154711923786978,6.4977235587226261
4680.0,21.353162957399061,7.6075049595198951,7.2329730837221327,6.5126849141570311
4700.0,21.422735594244635,7.6445775171689974,7.2503517594700906,6.5278063176055436
4720.0,21.491689178875792,7.6814544507590909,7.2667083197130715,6.5435264084036318
4740.0,21.558050677806776,7.7179607853646628,7.2809447366373163,6.5591451558048002
4760.0,21.621269301664181,7.7540962180906501,7.2924015217321365,6.5747715618413931
